Time	Pressure A	Pressure B	Pressure C	Pressure D
0.0	0.010653819711743555	0.0092264785638417179	0.0075333882013797196	-0.0053269098825063244
6.283185307179587e-05	0.011101800442370708	0.0096144412589105593	0.0078501584154309322	-0.0055509002489398523
0.00012566370614359174	0.011505967438581996	0.0099644601467508784	0.0081359476406126785	-0.0057529837480559147
0.0001884955592153876	0.011864725637889709	0.010275153862720788	0.0083896279974178395	-0.0059323628486066668
0.00025132741228718348	0.012176659185582212	0.010545296240665813	0.0086101983253736372	-0.0060883296232327518
0.00031415926535897936	0.012440537022455646	0.010773821152036516	0.0087967881341646289	-0.0062202685423291626
0.00037699111843077519	0.012655317743242184	0.010959826713410817	0.0089486610390602898	-0.0063276589032593838
0.00043982297150257108	0.012820153706560861	0.011102578845815834	0.0090652176670891274	-0.0064100768853308128
0.00050265482457436696	0.01293439438017085	0.011201514171802207	0.0091459980224899706	-0.0064671972224214086
0.00056548667764616284	0.012997588908325006	0.011256242238837519	0.0091906833021050856	-0.0064987944866564734
0.00062831853071795873	0.013009487891091543	0.011266547060244055	0.0091990971535505939	-0.0065047439780694894
0.00069115038378975461	0.012970044368621607	0.011232387967599552	0.0091712063711987639	-0.0064850222167359113
0.00075398223686155038	0.012879414006478355	0.011153899771236871	0.0091071210272254503	-0.0064397070354377094
0.00081681408993334627	0.012737954481296093	0.011031392228209211	0.0090070940372055097	-0.0063689772724929306
0.00087964594300514215	0.012546224069194005	0.010865348819820526	0.0088715201619705628	-0.00627311206596256
0.00094247779607693804	0.012304979442515369	0.010656424843545715	0.0087009344496683533	-0.0061524897520201308
0.0010053096491487339	0.012015172683587495	0.010405444826870842	0.0084960101241721361	-0.0060075863718316762
0.0010681415022205298	0.011677947527287756	0.010113399273259865	0.008257555928173628	-0.0058389737928387442
0.0011309733552923257	0.011294634847244552	0.0097814407530899591	0.0079865129314450733	-0.0056473174518588617
0.0011938052083641216	0.010866747403487106	0.0094108793549828196	0.0076839508168667948	-0.0054333737289104199
0.0012566370614359175	0.01039597387227275	0.0090031775154833724	0.0073510636588775512	-0.0051979869621263082
0.0013194689145077133	0.0098841721816532203	0.008559944247490868	0.0069891652110082494	-0.0049420861155370383
0.0013823007675795092	0.0093333621790814385	0.0080829287902200557	0.0065996837210969567	-0.004666681112874123
0.0014451326206513051	0.0087457176599964048	0.0075740137057531513	0.0061841562946471831	-0.004372858851862494
0.0015079644737231008	0.0081235577888457006	0.0070352074494273581	0.0057442228285747056	-0.0040617789147317437
0.0015707963267948967	0.0074693379464029546	0.0064686364433792316	0.0052816195392836277	-0.003734668991874821
0.0016336281798666925	0.0067856400395016666	0.0058765366845279689	0.0047981721106134419	-0.0033928200367149318
0.0016964600329384884	0.0060751623114285169	0.005261244920117111	0.0042957884886989876	-0.0030375811709021632
0.0017592918860102843	0.0053407086931898115	0.0046251894256407154	0.0037764513521787169	-0.0026703543599466764
0.0018221237390820802	0.0045851777376768	0.0039708804215493713	0.0032422102874679094	-0.0022925888803013435
0.0018849555921538761	0.0038115511804016262	0.0033009001665568732	0.0026951736999774479	-0.0019057755997296901
0.001947787445225672	0.0030228821719495034	0.0026178927666448129	0.0021375004932009151	-0.0015114410935319566
0.0020106192982974678	0.0022222832285881968	0.0019245537399842484	0.0015713915485088062	-0.0011111416198498062
0.0020734511513692635	0.0014129139485882852	0.0012236193789569322	0.00099908103927524232	-0.0007064569778264273
0.0021362830044410596	0.00059796854273227746	0.00051785595125939266	0.00042282761361636884	-0.00029898427286105989
0.0021991148575128553	-0.00021933677177604811	-0.00018995121729188397	-0.00015509451946188252	0.00010966838643636581
0.0022619467105846514	-0.0010357764642516232	-0.00089700873516897379	-0.00073240456532777144	0.00051788823471525243
0.002324778563656447	-0.0018481284202240453	-0.0016005261693726571	-0.0013068241449781248	0.00092406421473234328
0.0023876104167282431	-0.0026531866576514	-0.0022977270579966746	-0.0018760862867594074	0.0013265933354586661
0.0024504422698000388	-0.0034477739794667012	-0.0029858598676544309	-0.0024379443730691555	0.0017238869983527848
0.0025132741228718349	-0.004228754512523138	-0.0036622088525241634	-0.0029901810067292298	0.0021143772668334548
0.0025761059759436306	-0.0049930460834528134	-0.0043241047721570575	-0.0035306167620395017	0.002496523054209021
0.0026389378290154267	-0.0057376323825968859	-0.0049689354257498163	-0.0040571187859753804	0.0028688162056425231
0.0027017696820872223	-0.0064595748680017339	-0.0055941559613077937	-0.0045676092155842712	0.0032297874501498024
0.0027646015351590184	-0.0071560243625016333	-0.006197298919013253	-0.0050600733783614125	0.0035780121991408759
0.0028274333882308141	-0.0078242322981192797	-0.0067759839691619176	-0.0055325677432417879	0.0039121161686202204
0.0028902652413026102	-0.0084615615634079828	-0.0073279273062369218	-0.005983227590829367	0.004230780802857893
0.0029530970943744059	-0.0090654969109256675	-0.0078509506620457366	-0.0064102743725926109	0.0045327484781265744
0.0030159289474462015	-0.0096336548837675107	-0.008342989902349638	-0.0068120227299830229	0.0048168274659678902
0.0030787608005179976	-0.010163793221981399	-0.0088021031730584984	-0.0071868871457753513	0.0050818966364001806
0.0031415926535897933	-0.010653819711743555	-0.0092264785638417196	-0.0075333882013797196	0.0053269098825063244
0.0032044245066615894	-0.011101800442370711	-0.0096144412589105627	-0.0078501584154309374	0.0055509002489398549
0.0032672563597333851	-0.011505967438581998	-0.0099644601467508802	-0.0081359476406126785	0.0057529837480559147
0.0033300882128051812	-0.011864725637889709	-0.010275153862720788	-0.0083896279974178395	0.0059323628486066659
0.0033929200658769768	-0.012176659185582214	-0.010545296240665815	-0.008610198325373639	0.0060883296232327527
0.0034557519189487729	-0.012440537022455646	-0.010773821152036516	-0.0087967881341646289	0.0062202685423291626
0.0035185837720205686	-0.012655317743242188	-0.010959826713410821	-0.0089486610390602916	0.0063276589032593847
0.0035814156250923647	-0.012820153706560863	-0.011102578845815834	-0.0090652176670891291	0.0064100768853308137
0.0036442474781641604	-0.01293439438017085	-0.011201514171802205	-0.0091459980224899706	0.0064671972224214086
0.0037070793312359565	-0.012997588908325006	-0.011256242238837519	-0.0091906833021050856	0.0064987944866564734
0.0037699111843077521	-0.013009487891091543	-0.011266547060244055	-0.0091990971535505939	0.0065047439780694894
0.0038327430373795482	-0.012970044368621605	-0.011232387967599552	-0.0091712063711987622	0.0064850222167359113
0.0038955748904513439	-0.012879414006478355	-0.011153899771236873	-0.0091071210272254503	0.0064397070354377103
0.00395840674352314	-0.012737954481296093	-0.011031392228209209	-0.009007094037205508	0.0063689772724929289
0.0040212385965949357	-0.012546224069194006	-0.010865348819820528	-0.0088715201619705628	0.00627311206596256
0.0040840704496667313	-0.012304979442515369	-0.010656424843545715	-0.0087009344496683533	0.0061524897520201308
0.004146902302738527	-0.012015172683587491	-0.010405444826870841	-0.0084960101241721344	0.0060075863718316753
0.0042097341558103235	-0.011677947527287751	-0.01011339927325986	-0.0082575559281736245	0.0058389737928387425
0.0042725660088821192	-0.011294634847244548	-0.0097814407530899573	-0.0079865129314450715	0.0056473174518588583
0.0043353978619539149	-0.010866747403487104	-0.0094108793549828179	-0.007683950816866794	0.005433373728910419
0.0043982297150257105	-0.010395973872272752	-0.0090031775154833724	-0.0073510636588775529	0.0051979869621263091
0.0044610615680975071	-0.0098841721816532151	-0.0085599442474908645	-0.0069891652110082476	0.0049420861155370366
0.0045238934211693027	-0.0093333621790814298	-0.0080829287902200488	-0.0065996837210969507	0.0046666811128741187
0.0045867252742410984	-0.0087457176599963979	-0.0075740137057531461	-0.0061841562946471796	0.0043728588518624914
0.0046495571273128941	-0.0081235577888456971	-0.0070352074494273546	-0.005744222828574703	0.004061778914731742
0.0047123889803846906	-0.0074693379464029434	-0.0064686364433792221	-0.0052816195392836208	0.0037346689918748154
0.0047752208334564863	-0.0067856400395016605	-0.0058765366845279637	-0.0047981721106134367	0.0033928200367149292
0.0048380526865282819	-0.0060751623114285161	-0.0052612449201171092	-0.0042957884886989867	0.0030375811709021628
0.0049008845396000776	-0.0053407086931898046	-0.0046251894256407102	-0.0037764513521787125	0.0026703543599466734
0.0049637163926718741	-0.0045851777376767853	-0.0039708804215493592	-0.003242210287467899	0.0022925888803013361
0.0050265482457436698	-0.0038115511804016167	-0.0033009001665568649	-0.0026951736999774414	0.0019057755997296854
0.0050893800988154655	-0.0030228821719494991	-0.0026178927666448094	-0.0021375004932009125	0.0015114410935319544
0.0051522119518872611	-0.0022222832285881959	-0.0019245537399842476	-0.0015713915485088055	0.0011111416198498058
0.0052150438049590568	-0.0014129139485882895	-0.0012236193789569357	-0.00099908103927524535	0.00070645697782642947
0.0052778756580308533	-0.00059796854273226445	-0.00051785595125938139	-0.00042282761361635973	0.00029898427286105338
0.005340707511102649	0.00021933677177606069	0.00018995121729189438	0.00015509451946189119	-0.0001096683864363721
0.0054035393641744447	0.0010357764642516254	0.00089700873516897596	0.00073240456532777318	-0.00051788823471525351
0.0054663712172462403	0.0018481284202240432	0.0016005261693726549	0.0013068241449781235	-0.0009240642147323422
0.0055292030703180369	0.0026531866576514091	0.0022977270579966828	0.0018760862867594147	-0.0013265933354586707
0.0055920349233898325	0.0034477739794666995	0.0029858598676544301	0.0024379443730691546	-0.0017238869983527843
0.0056548667764616282	0.0042287545125231467	0.0036622088525241707	0.0029901810067292363	-0.0021143772668334592
0.0057176986295334239	0.0049930460834528229	0.0043241047721570662	0.0035306167620395073	-0.0024965230542090258
0.0057805304826052204	0.0057376323825968946	0.004968935425749825	0.0040571187859753857	-0.002868816205642527
0.0058433623356770161	0.0064595748680017417	0.0055941559613078007	0.0045676092155842755	-0.0032297874501498072
0.0059061941887488117	0.0071560243625016307	0.0061972989190132504	0.0050600733783614116	-0.0035780121991408746
0.0059690260418206074	0.0078242322981192883	0.0067759839691619254	0.0055325677432417932	-0.0039121161686202239
0.0060318578948924031	0.0084615615634079794	0.0073279273062369201	0.0059832275908293662	-0.004230780802857893
0.0060946897479641996	0.0090654969109256744	0.0078509506620457435	0.0064102743725926161	-0.0045327484781265779
0.0061575216010359953	0.0096336548837675177	0.008342989902349645	0.0068120227299830272	-0.0048168274659678946
0.0062203534541077909	0.010163793221981399	0.0088021031730584967	0.0071868871457753513	-0.0050818966364001798
0.0062831853071795866	0.010653819711743555	0.0092264785638417179	0.0075333882013797196	-0.0053269098825063244
0.0063460171602513831	0.011101800442370717	0.0096144412589105679	0.0078501584154309391	-0.0055509002489398575
0.0064088490133231788	0.011505967438581999	0.0099644601467508819	0.0081359476406126837	-0.0057529837480559173
0.0064716808663949745	0.011864725637889713	0.010275153862720791	0.008389627997417843	-0.0059323628486066685
0.0065345127194667701	0.012176659185582214	0.010545296240665815	0.008610198325373639	-0.0060883296232327527
0.0065973445725385667	0.012440537022455648	0.01077382115203652	0.0087967881341646306	-0.0062202685423291644
0.0066601764256103623	0.012655317743242186	0.010959826713410819	0.0089486610390602916	-0.0063276589032593847
0.006723008278682158	0.012820153706560866	0.011102578845815838	0.0090652176670891291	-0.0064100768853308137
0.0067858401317539537	0.012934394380170851	0.011201514171802209	0.0091459980224899706	-0.0064671972224214095
0.0068486719848257502	0.012997588908325008	0.011256242238837519	0.0091906833021050856	-0.0064987944866564742
0.0069115038378975459	0.013009487891091543	0.011266547060244055	0.0091990971535505939	-0.0065047439780694877
0.0069743356909693415	0.012970044368621605	0.011232387967599551	0.0091712063711987622	-0.0064850222167359113
0.0070371675440411372	0.012879414006478353	0.011153899771236871	0.0091071210272254503	-0.0064397070354377086
0.0070999993971129329	0.012737954481296091	0.011031392228209209	0.009007094037205508	-0.0063689772724929289
0.0071628312501847294	0.012546224069194001	0.010865348819820524	0.008871520161970561	-0.0062731120659625583
0.0072256631032565251	0.012304979442515365	0.010656424843545714	0.0087009344496683516	-0.0061524897520201299
0.0072884949563283207	0.012015172683587491	0.010405444826870839	0.0084960101241721344	-0.0060075863718316753
0.0073513268094001164	0.011677947527287756	0.010113399273259865	0.008257555928173628	-0.0058389737928387442
0.007414158662471913	0.011294634847244543	0.0097814407530899521	0.0079865129314450663	-0.0056473174518588565
0.0074769905155437086	0.010866747403487099	0.0094108793549828144	0.0076839508168667914	-0.0054333737289104164
0.0075398223686155043	0.010395973872272745	0.0090031775154833672	0.0073510636588775477	-0.0051979869621263056
0.0076026542216872999	0.0098841721816532169	0.0085599442474908662	0.0069891652110082485	-0.0049420861155370366
0.0076654860747590965	0.0093333621790814315	0.0080829287902200505	0.0065996837210969515	-0.0046666811128741196
0.0077283179278308922	0.0087457176599963996	0.007574013705753147	0.0061841562946471796	-0.0043728588518624923
0.0077911497809026878	0.0081235577888456902	0.0070352074494273486	0.0057442228285746969	-0.0040617789147317377
0.0078539816339744835	0.0074693379464029451	0.0064686364433792238	0.0052816195392836216	-0.0037346689918748158
0.00791681348704628	0.0067856400395016519	0.0058765366845279568	0.0047981721106134315	-0.0033928200367149249
0.0079796453401180748	0.0060751623114285169	0.005261244920117111	0.0042957884886989876	-0.0030375811709021632
0.0080424771931898714	0.0053407086931898063	0.0046251894256407119	0.0037764513521787134	-0.0026703543599466742
0.0081053090462616679	0.0045851777376767757	0.0039708804215493514	0.0032422102874678925	-0.0022925888803013313
0.0081681408993334627	0.0038115511804016292	0.0033009001665568758	0.0026951736999774501	-0.0019057755997296916
0.0082309727524052592	0.0030228821719494895	0.0026178927666448016	0.0021375004932009055	-0.0015114410935319498
0.008293804605477054	0.002222283228588186	0.0019245537399842387	0.0015713915485087986	-0.0011111416198498008
0.0083566364585488506	0.0014129139485882796	0.0012236193789569275	0.00099908103927523863	-0.00070645697782642449
0.0084194683116206471	0.00059796854273225491	0.00051785595125937315	0.00042282761361635323	-0.00029898427286104883
0.0084823001646924419	-0.00021933677177604725	-0.00018995121729188311	-0.00015509451946188208	0.00010966838643636581
0.0085451320177642384	-0.0010357764642516349	-0.00089700873516898464	-0.00073240456532777968	0.00051788823471525828
0.008607963870836035	-0.0018481284202240531	-0.001600526169372664	-0.0013068241449781305	0.00092406421473234719
0.0086707957239078298	-0.0026531866576514082	-0.002297727057996682	-0.0018760862867594139	0.0013265933354586702
0.0087336275769796263	-0.0034477739794667199	-0.002985859867654447	-0.0024379443730691681	0.0017238869983527943
0.0087964594300514211	-0.0042287545125231345	-0.0036622088525241599	-0.0029901810067292272	0.0021143772668334531
0.0088592912831232176	-0.0049930460834528316	-0.0043241047721570731	-0.0035306167620395138	0.0024965230542090301
0.0089221231361950142	-0.0057376323825968929	-0.0049689354257498233	-0.0040571187859753848	0.0028688162056425266
0.008984954989266809	-0.0064595748680017408	-0.0055941559613078007	-0.0045676092155842755	0.0032297874501498068
0.0090477868423386055	-0.0071560243625016506	-0.0061972989190132669	-0.0050600733783614247	0.0035780121991408841
0.0091106186954104003	-0.0078242322981192779	-0.006775983969161915	-0.0055325677432417862	0.0039121161686202187
0.0091734505484821968	-0.0084615615634079881	-0.007327927306236927	-0.0059832275908293722	0.0042307808028578964
0.0092362824015539934	-0.0090654969109256744	-0.0078509506620457435	-0.0064102743725926153	0.004532748478126577
0.0092991142546257882	-0.0096336548837675159	-0.008342989902349645	-0.0068120227299830263	0.0048168274659678937
0.0093619461076975847	-0.010163793221981398	-0.0088021031730584967	-0.0071868871457753504	0.0050818966364001798
0.0094247779607693812	-0.010653819711743567	-0.0092264785638417283	-0.0075333882013797274	0.0053269098825063314
0.009487609813841176	-0.011101800442370715	-0.0096144412589105662	-0.0078501584154309391	0.0055509002489398567
0.0095504416669129726	-0.011505967438581999	-0.0099644601467508819	-0.008135947640612682	0.0057529837480559173
0.0096132735199847674	-0.011864725637889713	-0.010275153862720791	-0.008389627997417843	0.0059323628486066685
0.0096761053730565639	-0.012176659185582212	-0.010545296240665815	-0.0086101983253736372	0.0060883296232327518
0.0097389372261283604	-0.012440537022455652	-0.010773821152036522	-0.0087967881341646341	0.0062202685423291661
0.0098017690792001552	-0.012655317743242189	-0.010959826713410822	-0.0089486610390602933	0.0063276589032593856
0.0098646009322719518	-0.012820153706560864	-0.011102578845815838	-0.0090652176670891291	0.0064100768853308137
0.0099274327853437483	-0.012934394380170853	-0.011201514171802211	-0.0091459980224899741	0.0064671972224214103
0.0099902646384155431	-0.012997588908325006	-0.011256242238837519	-0.0091906833021050856	0.0064987944866564734
0.01005309649148734	-0.013009487891091541	-0.011266547060244055	-0.0091990971535505922	0.0065047439780694886
0.010115928344559134	-0.012970044368621605	-0.011232387967599552	-0.0091712063711987622	0.0064850222167359105
0.010178760197630931	-0.012879414006478351	-0.011153899771236871	-0.0091071210272254486	0.0064397070354377086
0.010241592050702727	-0.012737954481296087	-0.011031392228209206	-0.0090070940372055062	0.0063689772724929272
0.010304423903774522	-0.012546224069194005	-0.010865348819820526	-0.0088715201619705628	0.00627311206596256
0.010367255756846319	-0.012304979442515362	-0.010656424843545707	-0.0087009344496683481	0.0061524897520201273
0.010430087609918114	-0.012015172683587497	-0.010405444826870844	-0.0084960101241721379	0.006007586371831678
0.01049291946298991	-0.011677947527287753	-0.01011339927325986	-0.0082575559281736245	0.0058389737928387416
0.010555751316061707	-0.011294634847244538	-0.0097814407530899487	-0.0079865129314450646	0.0056473174518588539
0.010618583169133501	-0.010866747403487106	-0.0094108793549828196	-0.0076839508168667948	0.0054333737289104199
0.010681415022205298	-0.010395973872272739	-0.009003177515483362	-0.0073510636588775442	0.0051979869621263022
0.010744246875277095	-0.0098841721816532099	-0.0085599442474908593	-0.0069891652110082433	0.004942086115537034
0.010807078728348889	-0.0093333621790814315	-0.0080829287902200505	-0.0065996837210969524	0.0046666811128741204
0.010869910581420686	-0.008745717659996384	-0.007574013705753134	-0.0061841562946471692	0.0043728588518624845
0.010932742434492481	-0.0081235577888457006	-0.0070352074494273564	-0.0057442228285747047	0.0040617789147317429
0.010995574287564277	-0.0074693379464029373	-0.0064686364433792169	-0.0052816195392836156	0.0037346689918748123
0.011058406140636074	-0.0067856400395016536	-0.0058765366845279585	-0.0047981721106134323	0.0033928200367149258
0.011121237993707869	-0.0060751623114285083	-0.0052612449201171023	-0.0042957884886989815	0.0030375811709021589
